# observed_wavelength   fluxdensity    fluxdensity_err  
  8987.074              9.413595       26.366398        
  8987.674              -3.9895067     29.716564        
  8988.274              -27.647738     29.125881        
  8988.874              -1.5393764     27.007896        
  8989.475              -27.770033     36.800705        
  8990.075              -96.08371      66.03011         
  8990.675              -173.43689     77.07173         
  8991.275              -103.74039     51.283993        
  8991.875              -27.474102     28.684662        
  8992.476              10.375407      24.09278         
  8993.075              13.245493      24.052843        
  8993.676              -9.802683      26.643286        
  8994.276              -3.0140615     31.30108         
  8994.876              8.97663        31.710445        
  8995.477              18.480026      27.462261        
  8996.076              22.292404      25.189653        
  8996.677              18.179195      25.257095        
  8997.276              -6.0192795     24.582476        
  8997.877              -5.093566      24.925953        
  8998.477              6.0722146      26.666105        
  8999.077              12.415302      29.467428        
  8999.678              -19.75694      31.253025        
  9000.277              -2.5121784     29.098463        
  9000.878              -6.504658      26.316538        
  9001.478              13.288875      25.468391        
  9002.078              -8.07775       32.723026        
  9002.678              -1.3843364     66.558624        
  9003.278              77.23652       106.436104       
  9003.879              -60.985268     100.94978        
  9004.479              -125.55383     57.683075        
  9005.079              -42.10993      29.480537        
  9005.679              -2.4042733     24.542372        
  9006.279              -12.131303     25.311752        
  9006.879              -31.935978     24.922775        
  9007.4795             0.2898074      24.062897        
  9008.08               -0.24045013    23.895227        
  9008.68               5.394872       23.659525        
  9009.28               38.937103      23.48789         
  9009.88               29.11559       23.432146        
  9010.48               12.977524      23.392733        
  9011.08               22.82361       23.453545        
  9011.681              10.786981      23.491043        
  9012.281              15.720373      23.496952        
  9012.881              34.94849       23.42091         
  9013.481              -17.87019      23.36736         
  9014.081              -35.869156     23.314228        
  9014.682              14.021573      23.227932        
  9015.281              5.1071105      23.260283        
  9015.882              -11.04547      23.206657        
  9016.481              -2.500487      23.166346        
  9017.082              -40.769493     23.22152         
  9017.683              -18.538713     23.217087        
  9018.282              14.167366      22.829882        
  9018.883              -1.6822765     22.641428        
  9019.482              5.498949       22.980766        
  9020.083              -21.48922      23.365984        
  9020.683              -47.410393     23.534336        
  9021.283              -68.73075      23.615889        
  9021.884              -43.377033     24.036228        
  9022.483              -50.24527      26.268465        
  9023.084              -33.608612     28.854027        
  9023.684              21.521397      27.788975        
  9024.284              -1.6089338     24.564905        
  9024.884              -37.386223     23.2539          
  9025.484              -20.773552     23.313206        
  9026.085              -32.857613     23.41234         
  9026.685              -37.990784     23.428501        
  9027.285              -8.092611      23.55304         
  9027.885              35.484474      23.612383        
  9028.485              48.387524      23.641638        
  9029.085              24.578634      24.127083        
  9029.686              -20.83356      25.614674        
  9030.285              -30.352678     27.689196        
  9030.886              -5.7190957     27.792261        
  9031.486              -29.277206     25.761219        
  9032.086              -50.739624     24.66824         
  9032.687              -22.420034     24.458643        
  9033.286              -10.520887     24.476454        
  9033.887              -10.817575     24.762842        
  9034.486              -19.695755     24.263172        
  9035.087              -15.343913     23.620089        
  9035.6875             13.923799      23.558044        
  9036.287              -5.223412      23.509842        
  9036.888              -23.894081     23.56545         
  9037.487              -37.388973     23.723963        
  9038.088              5.8964286      23.808472        
  9038.6875             6.906677       25.317087        
  9039.288              -73.86806      36.80774         
  9039.889              -121.77206     58.593483        
  9040.488              -82.89623      59.759434        
  9041.089              -42.399216     38.80845         
  9041.688              -38.383766     25.879168        
  9042.289              -20.920303     23.971514        
  9042.889              1.5496403      24.637197        
  9043.489              -3.9282088     25.782763        
  9044.09               -17.204807     24.94793         
  9044.689              5.206927       24.65259         
  9045.29               -11.22825      26.749128        
  9045.89               -4.5816355     27.491234        
  9046.49               -39.395363     25.623161        
  9047.09               -30.589369     24.410133        
  9047.69               -35.84874      24.356989        
  9048.29               -38.898758     24.400906        
  9048.891              -5.514666      24.059904        
  9049.491              -3.362734      24.205313        
  9050.091              -15.78753      27.790264        
  9050.691              -17.621418     45.037888        
  9051.291              20.581888      71.20951         
  9051.892              110.95449      77.41133         
  9052.491              117.5531       56.167828        
  9053.092              14.954644      32.738632        
  9053.692              7.302137       25.360945        
  9054.292              52.600822      24.730177        
  9054.893              21.995712      24.402552        
  9055.492              -30.42022      24.30931         
  9056.093              -42.585747     24.650019        
  9056.692              -20.591227     24.453363        
  9057.293              -9.8918915     24.505964        
  9057.894              -3.4100049     25.41808         
  9058.493              4.4088674      26.663378        
  9059.094              4.84413        27.241917        
  9059.693              15.934829      26.117336        
  9060.294              -0.21685266    24.703217        
  9060.894              0.7729358      24.562904        
  9061.494              -10.456133     25.052235        
  9062.095              -24.729536     24.824404        
  9062.694              13.281751      24.318829        
  9063.295              -5.260621      24.305843        
  9063.895              -25.34523      23.996716        
  9064.495              1.6502683      23.68267         
  9065.095              24.726637      24.279324        
  9065.695              5.6577225      26.299034        
  9066.295              -6.0785203     28.298498        
  9066.8955             -15.466499     28.143248        
  9067.496              -50.1693       27.65659         
  9068.096              -43.797764     26.959204        
  9068.696              -3.9636703     25.118317        
  9069.296              29.091135      24.518711        
  9069.896              -20.523323     26.323061        
  9070.496              -18.65086      28.977053        
  9071.097              9.460748       28.05659         
  9071.697              -5.704479      25.606318        
  9072.297              -65.579865     26.684269        
  9072.897              -44.440903     28.049896        
  9073.497              -26.24176      26.288166        
  9074.098              -22.897911     24.340681        
  9074.697              -21.213575     24.132256        
  9075.298              -1.0825553     24.277224        
  9075.898              -8.194885      24.333355        
  9076.498              -54.638954     24.479618        
  9077.099              -65.40326      24.563583        
  9077.698              -19.103868     24.68321         
  9078.299              -44.592445     24.970575        
  9078.898              -86.13466      24.836126        
  9079.499              -28.507809     24.591122        
  9080.1                -2.8558514     24.511694        
  9080.699              18.634918      24.475037        
  9081.3                20.466648      24.539587        
  9081.899              -33.18618      24.544104        
  9082.5                -37.21527      24.73729         
  9083.1                -0.012038453   24.915182        
  9083.7                -2.350935      24.720936        
  9084.3                -8.110081      24.765667        
  9084.9                -21.215815     25.12255         
  9085.501              8.8236265      25.548199        
  9086.101              -5.7302265     25.944063        
  9086.701              -12.832281     26.431631        
  9087.301              -13.69025      26.406498        
  9087.901              -21.886244     25.72925         
  9088.501              -17.109201     25.246336        
  9089.102              8.500361       24.651411        
  9089.702              -18.13272      24.263391        
  9090.302              7.086262       24.214384        
  9090.902              12.488609      24.242876        
  9091.502              -32.76126      24.36886         
  9092.103              -18.337456     25.07651         
  9092.702              18.16304       26.02811         
  9093.303              31.594717      27.373594        
  9093.903              3.9794843      34.567715        
  9094.503              -17.642572     45.454197        
  9095.104              -85.44165      45.14482         
  9095.703              -81.04782      35.13144         
  9096.304              -46.25928      28.308228        
  9096.903              -22.303318     25.547707        
  9097.504              9.48296        24.982449        
  9098.104              5.0540614      25.450443        
  9098.704              10.993871      25.784214        
  9099.305              22.47985       25.928442        
  9099.904              -4.0495486     26.016272        
  9100.505              -5.445605      25.847439        
  9101.1045             -40.42496      25.759666        
  9101.705              -106.78013     25.351173        
  9102.305              -93.21438      24.72266         
  9102.905              -56.422897     25.036022        
  9103.506              -71.35594      29.626997        
  9104.105              -43.680107     43.368122        
  9104.706              -111.130745    55.588566        
  9105.306              -154.28613     53.987926        
  9105.906              -82.69154      40.89276         
  9106.506              -23.300648     29.487337        
  9107.106              -29.570913     26.181305        
  9107.707              -29.972784     25.158907        
  9108.307              -5.2889724     24.898676        
  9108.907              1.2334876      24.802933        
  9109.507              -5.822352      24.79037         
  9110.107              -13.452286     24.992975        
  9110.707              -42.249607     25.27404         
  9111.308              -33.637318     25.412523        
  9111.908              -48.687508     25.568068        
  9112.508              -56.731018     25.702642        
  9113.108              4.232228       25.45476         
  9113.708              10.499098      25.242937        
  9114.309              20.326763      25.30339         
  9114.908              23.216425      25.456484        
  9115.509              -22.281422     25.644844        
  9116.108              -22.851076     25.694769        
  9116.709              -5.7886443     25.887691        
  9117.31               -12.998917     26.92588         
  9117.909              24.61267       27.094885        
  9118.51               23.839296      25.98803         
  9119.109              4.448525       25.481785        
  9119.71               8.286585       25.283854        
  9120.31               -8.040608      25.041864        
  9120.91               10.372878      25.102512        
  9121.511              -0.0988863     25.700687        
  9122.11               -41.298244     25.987131        
  9122.711              -76.97357      25.849297        
  9123.311              -27.559109     25.8407          
  9123.911              19.584396      25.936651        
  9124.511              13.302433      26.077692        
  9125.111              -13.600713     26.197807        
  9125.712              -5.81908       26.27134         
  9126.312              -15.346328     26.139233        
  9126.912              -57.18531      25.882471        
  9127.512              -54.8241       25.981628        
  9128.112              46.199314      26.070002        
  9128.712              55.117393      26.063425        
  9129.3125             33.369423      26.044157        
  9129.913              48.40439       25.931168        
  9130.513              11.571996      25.779974        
  9131.113              -20.430225     25.806412        
  9131.713              13.5985155     25.765762        
  9132.313              -3.0136635     25.63794         
  9132.913              -4.4806304     25.829615        
  9133.514              -14.397595     26.242062        
  9134.113              -21.43074      26.561552        
  9134.714              -41.50507      27.53178         
  9135.314              -46.63833      28.21075         
  9135.914              12.61937       27.839418        
  9136.515              14.933455      27.244156        
  9137.114              -61.021217     26.598526        
  9137.715              -64.88064      26.799475        
  9138.314              -48.249176     27.345581        
  9138.915              -2.616597      27.314177        
  9139.516              16.33652       27.04013         
  9140.115              -12.191134     27.066936        
  9140.716              1.6685885      27.208836        
  9141.315              -18.677103     27.475441        
  9141.916              -30.138044     27.777893        
  9142.516              15.127337      27.525698        
  9143.116              55.07413       27.113968        
  9143.717              26.735884      27.096495        
  9144.316              -31.7581       27.125862        
  9144.917              -1.0178648     27.12168         
  9145.517              19.220352      27.342916        
  9146.117              20.74309       27.591091        
  9146.717              6.4546485      27.865982        
  9147.317              -8.145716      27.90122         
  9147.918              -33.433834     27.688488        
  9148.518              -37.483746     27.640621        
  9149.118              -45.365875     28.059587        
  9149.718              -6.753143      28.837097        
  9150.318              16.525091      29.360176        
  9150.918              -20.147678     28.361412        
  9151.519              -50.947784     27.680056        
  9152.118              -16.90056      27.764845        
  9152.719              45.994476      29.46956         
  9153.319              28.963089      35.831318        
  9153.919              45.36361       43.373074        
  9154.52               57.785404      42.849823        
  9155.119              67.48251       35.783966        
  9155.72               28.234083      30.690052        
  9156.319              -33.44351      29.81703         
  9156.92               -50.085342     29.913614        
  9157.5205             -12.384593     28.59083         
  9158.12               7.167658       28.378496        
  9158.721              -30.3476       30.889376        
  9159.32               -1.0872133     32.066437        
  9159.921              -21.094961     30.105457        
  9160.5205             -36.29338      29.215672        
  9161.121              -5.2451897     30.940008        
  9161.722              40.26562       33.182846        
  9162.321              -18.483894     38.695324        
  9162.922              6.5414724      45.6868          
  9163.521              28.820623      48.42718         
  9164.122              -2.2218654     43.5462          
  9164.722              3.0681589      33.96167         
  9165.322              -2.4656484     29.51226         
  9165.923              -40.27567      28.647247        
  9166.522              -39.879776     28.66594         
  9167.123              -28.69313      28.84173         
  9167.723              -20.068966     28.839281        
  9168.323              -4.0910144     28.988058        
  9168.923              12.9932575     29.679543        
  9169.523              8.628314       29.42806         
  9170.123              -15.312201     28.90077         
  9170.724              -58.20675      28.800604        
  9171.324              1.2804686      29.074574        
  9171.924              43.378956      29.458103        
  9172.524              21.957455      30.248528        
  9173.124              47.864315      30.751019        
  9173.725              80.993805      30.223055        
  9174.324              30.428127      31.011269        
  9174.925              0.9741476      30.684027        
  9175.525              -21.898441     29.511728        
  9176.125              -45.2244       29.206663        
  9176.726              5.478602       29.305122        
  9177.325              28.080463      29.555643        
  9177.926              14.73378       29.933731        
  9178.525              -28.368902     29.99469         
  9179.126              -32.28268      29.956213        
  9179.727              2.59124        30.151945        
  9180.326              -0.6746378     30.176401        
  9180.927              0.0042488156   30.355452        
  9181.526              22.940271      30.533144        
  9182.127              -15.745825     30.426147        
  9182.727              -34.769577     30.56977         
  9183.327              -31.001053     30.504908        
  9183.927              -31.366776     30.240927        
  9184.527              17.38138       30.416636        
  9185.128              13.675551      30.657486        
  9185.728              -15.994172     30.485847        
  9186.328              -26.437073     30.29945         
  9186.928              -68.30903      30.30238         
  9187.528              -59.72603      30.224516        
  9188.128              -28.715908     30.22676         
  9188.729              -14.210753     30.625309        
  9189.329              23.782505      30.92058         
  9189.929              36.059483      30.864004        
  9190.529              12.525019      30.977583        
  9191.129              -14.841376     30.95032         
  9191.7295             0.3727076      30.87024         
  9192.329              17.60176       30.932644        
  9192.93               40.193127      31.028702        
  9193.53               12.298875      31.336935        
  9194.13               -10.8335       31.588799        
  9194.73               -38.90109      31.41542         
  9195.33               -8.058085      31.363136        
  9195.931              23.774372      31.437649        
  9196.53               9.3502445      31.506083        
  9197.131              -5.58779       31.669025        
  9197.731              -43.320942     31.357407        
  9198.331              -23.701378     31.407213        
  9198.932              25.851467      31.564438        
  9199.531              15.13925       31.511559        
  9200.132              1.1403501      31.705904        
  9200.731              12.680374      31.90467         
  9201.332              -14.227447     31.98114         
  9201.932              -13.759        32.261612        
  9202.532              -2.1018302     32.366802        
  9203.133              -21.998438     32.16585         
  9203.732              -49.223545     32.092033        
  9204.333              -60.54889      32.24449         
  9204.933              -19.26126      32.65303         
  9205.533              -1.2107296     33.008682        
  9206.133              22.216562      32.903263        
  9206.733              30.918955      32.869038        
  9207.334              17.438726      33.029015        
  9207.934              13.835671      32.85025         
  9208.534              25.80358       32.694363        
  9209.134              24.900497      32.6205          
  9209.734              -9.465091      32.642166        
  9210.334              -30.474014     33.77299         
  9210.935              -15.609147     36.47936         
  9211.535              3.4517174      36.382065        
  9212.135              -73.81657      34.26357         
  9212.735              -75.42301      33.82132         
  9213.335              -25.655455     33.75858         
  9213.936              -21.491407     33.58277         
  9214.535              -67.16178      33.54302         
  9215.136              -65.772736     33.508183        
  9215.736              -10.771303     33.49081         
  9216.336              -19.309605     33.635075        
  9216.937              0.0745684      34.165012        
  9217.536              56.195824      37.73936         
  9218.137              33.698376      46.234997        
  9218.736              -73.89774      49.789795        
  9219.337              -108.56459     44.347076        
  9219.937              -94.986984     37.314983        
  9220.537              -4.7181187     34.634876        
  9221.138              62.026096      34.546528        
  9221.737              46.4511        35.011738        
  9222.338              105.2219       35.52904         
  9222.9375             216.97644      35.843536        
  9223.538              204.54477      35.851254        
  9224.138              185.75668      35.944427        
  9224.738              238.03883      36.061882        
  9225.339              224.2858       37.47052         
  9225.938              168.34549      43.435543        
  9226.539              178.63397      48.904003        
  9227.139              97.57847       49.344933        
  9227.739              -20.00958      47.041958        
  9228.339              -30.890345     41.835014        
  9228.939              -2.0377307     38.19978         
  9229.54               175.99783      37.299194        
  9230.14               322.1591       36.833538        
  9230.74               434.04926      37.377605        
  9231.34               478.51993      37.973568        
  9231.94               484.7096       37.715584        
  9232.54               440.4154       37.065163        
  9233.141              397.04404      36.960876        
  9233.741              375.29968      37.018475        
  9234.341              354.1792       36.967403        
  9234.941              261.03622      37.162365        
  9235.541              203.89294      37.775753        
  9236.142              245.7455       37.969093        
  9236.741              221.50209      37.506714        
  9237.342              177.77037      37.301865        
  9237.941              119.25778      37.254913        
  9238.542              102.163025     37.288383        
  9239.143              145.43405      37.20545         
  9239.742              128.75839      37.15027         
  9240.343              85.37062       37.250828        
  9240.942              50.917683      37.324158        
  9241.543              106.84842      37.46652         
  9242.143              108.47873      37.73558         
  9242.743              50.482624      38.012653        
  9243.344              37.727154      38.161762        
  9243.943              25.132296      38.188557        
  9244.544              42.48938       38.257328        
  9245.144              51.01513       38.301296        
  9245.744              28.28336       38.41633         
  9246.344              -28.659391     38.414           
  9246.944              2.2685223      38.441257        
  9247.545              60.366207      38.768604        
  9248.145              26.762424      38.996544        
  9248.745              -28.966        40.28906         
  9249.345              -40.461803     43.10037         
  9249.945              -36.91147      43.695946        
  9250.545              -16.789446     42.327244        
  9251.1455             27.10771       41.798058        
  9251.745              61.98981       41.90514         
  9252.346              3.98801        42.324688        
  9252.946              -29.855936     44.050503        
  9253.546              26.611639      44.736546        
  9254.146              44.187855      42.407303        
  9254.746              47.890385      40.56408         
  9255.347              76.229195      41.301983        
  9255.946              50.028473      43.117878        
  9256.547              64.55907       43.63272         
  9257.147              50.21569       43.26562         
  9257.747              6.6137013      42.255062        
  9258.348              3.182789       41.081936        
  9258.947              -23.386751     40.978745        
  9259.548              -45.789806     40.071342        
  9260.147              25.322258      36.262535        
  9260.748              -7.013103      33.44612         
  9261.349              -18.728313     33.082714        
  9261.948              -3.1731126     33.191547        
  9262.549              -10.825072     33.255295        
  9263.148              -44.93187      33.30026         
  9263.749              -25.871618     33.890457        
  9264.349              26.254286      35.59745         
  9264.949              96.095         36.279575        
  9265.55               103.45227      34.79047         
  9266.149              48.760914      33.509857        
  9266.75               -16.150242     33.40411         
  9267.35               -66.643585     33.594925        
  9267.95               -61.05241      33.705723        
  9268.55               -20.437567     33.615665        
  9269.15               -22.05286      33.431385        
  9269.75               -11.33159      33.411606        
  9270.351              6.121457       33.525627        
  9270.951              -8.027998      33.540882        
  9271.551              -10.569875     33.511837        
  9272.151              -47.366047     33.639496        
  9272.751              -55.011425     33.699707        
  9273.352              -2.9261696     33.62639         
  9273.951              4.652141       33.602673        
  9274.552              -26.807472     33.667225        
  9275.152              -29.812847     33.71475         
  9275.752              22.255455      33.765358        
  9276.353              33.46222       33.775154        
  9276.952              26.047571      33.736           
  9277.553              43.560375      33.709217        
  9278.152              20.815744      33.738304        
  9278.753              18.722265      33.77304         
  9279.354              53.898773      33.85461         
  9279.953              38.655994      33.99686         
  9280.554              2.1452596      33.8231          
  9281.153              -24.238476     33.682533        
  9281.754              -55.655014     33.65245         
  9282.354              -63.076767     33.682533        
  9282.954              -51.92921      33.87793         
  9283.555              -35.077908     34.14795         
  9284.154              0.82096356     34.08949         
  9284.755              18.018393      33.888203        
  9285.3545             -26.176443     33.885773        
  9285.955              -44.64298      34.02484         
  9286.555              -35.94622      34.14498         
  9287.155              -54.036816     35.121967        
  9287.755              -59.30298      38.300148        
  9288.355              -62.049725     41.014088        
  9288.956              -16.404173     40.0818          
  9289.556              31.76897       37.322006        
  9290.156              50.52552       36.343796        
  9290.756              79.64643       37.072712        
  9291.356              4.2037473      36.691055        
  9291.956              -35.104084     35.50971         
  9292.557              24.94596       34.87675         
  9293.157              58.64141       34.727833        
  9293.757              35.298424      35.031754        
  9294.357              52.486008      36.364483        
  9294.957              58.084835      39.66009         
  9295.558              37.09694       42.042606        
  9296.157              47.140926      41.147415        
  9296.758              86.44756       40.09934         
  9297.358              53.436783      38.078114        
  9297.958              12.836367      35.423344        
  9298.559              -7.614824      34.500305        
  9299.158              -50.579872     34.33541         
  9299.759              -43.584        34.266068        
  9300.358              -24.928268     34.338116        
  9300.959              23.438623      34.455776        
  9301.56               37.961018      34.64489         
  9302.159              6.6818886      34.738453        
  9302.76               -33.599625     34.538082        
  9303.359              -3.49271       34.50083         
  9303.96               18.644526      34.682365        
  9304.56               6.6272006      35.013443        
  9305.16               -37.319923     35.26276         
  9305.76               -52.17859      35.537853        
  9306.36               -39.384212     36.8115          
  9306.961              13.631201      43.79662         
  9307.561              51.127808      68.22957         
  9308.161              154.78667      95.1452          
  9308.761              110.635185     106.02269        
  9309.361              44.18626       118.08991        
  9309.961              -7.301189      109.36587        
  9310.562              -47.08677      79.10025         
  9311.162              10.220814      69.130455        
  9311.762              35.721092      63.67159         
  9312.362              45.109188      57.55408         
  9312.962              22.02189       58.428265        
  9313.5625             2.3143876      54.964256        
  9314.162              36.87052       64.716156        
  9314.763              -74.73597      116.31873        
  9315.363              -138.64        166.4376         
  9315.963              -54.468483     145.76102        
  9316.563              45.879913      79.96665         
  9317.163              13.540212      44.717358        
  9317.764              -36.649654     37.875782        
  9318.363              -33.28008      37.83061         
  9318.964              16.94656       43.946163        
  9319.563              -35.31542      58.007324        
  9320.164              -106.331436    62.894184        
  9320.765              -67.095955     50.397438        
  9321.364              -41.565655     38.86577         
  9321.965              -54.047348     36.156727        
  9322.564              -43.801956     36.184612        
  9323.165              -47.110817     37.8082          
  9323.765              -14.324363     46.44187         
  9324.365              36.570087      66.54558         
  9324.966              82.790634      97.11137         
  9325.565              59.676514      141.60707        
  9326.166              111.66868      150.3588         
  9326.766              -78.158        99.15474         
  9327.366              -99.99797      51.804474        
  9327.966              -25.85019      38.73145         
  9328.566              8.457515       36.727837        
  9329.167              -39.40044      36.36304         
  9329.767              -63.3381       36.19528         
  9330.367              3.919947       35.952892        
  9330.967              13.869962      35.987045        
  9331.567              -35.025726     37.016544        
  9332.167              -49.84461      41.907406        
  9332.768              -142.8097      51.520584        
  9333.368              -220.30684     56.396442        
  9333.968              -90.572105     51.362812        
  9334.568              -23.10784      44.469868        
  9335.168              -3.220314      41.853798        
  9335.769              4.611166       41.201           
  9336.368              61.624886      40.907562        
  9336.969              69.60192       40.843693        
  9337.568              53.850834      41.111256        
  9338.169              -25.166592     42.471996        
  9338.77               -54.30378      50.270752        
  9339.369              -35.850998     77.80068         
  9339.97               54.62536       105.741005       
  9340.569              21.478935      93.88895         
  9341.17               20.914143      59.633446        
  9341.77               8.504547       43.791492        
  9342.37               -59.97472      41.520844        
  9342.971              -63.374966     41.3252          
  9343.57               -44.94071      41.021805        
  9344.171              -110.83211     40.590202        
  9344.7705             -72.37884      40.308193        
  9345.371              0.9047295      40.036125        
  9345.971              -17.695253     39.699837        
  9346.571              -24.960817     39.361324        
  9347.172              54.03703       39.2505          
  9347.771              90.619705      39.397           
  9348.372              21.177029      40.14469         
  9348.972              -79.107285     41.451447        
  9349.572              -93.182686     43.731106        
  9350.172              -55.59802      49.187294        
  9350.772              -68.775116     54.27872         
  9351.373              -120.80009     55.960285        
  9351.973              -59.850075     54.75663         
  9352.573              -49.232773     49.264328        
  9353.173              -73.985725     44.720673        
  9353.773              3.8082514      44.575546        
  9354.373              -19.159803     43.456444        
  9354.974              -15.799697     40.963356        
  9355.573              -47.332184     39.788162        
  9356.174              -34.376278     40.052338        
  9356.774              5.0048323      40.894604        
  9357.374              -14.965648     40.932278        
  9357.975              -37.26691      40.245514        
  9358.574              -48.66986      39.763752        
  9359.175              -46.649536     39.725567        
  9359.774              -63.03082      41.12412         
  9360.375              -22.982515     42.251945        
  9360.976              10.358428      40.131523        
  9361.575              43.062595      39.052822        
  9362.176              -8.577905      39.77047         
  9362.775              -7.9404516     41.462967        
  9363.376              -2.08073       44.190514        
  9363.976              0.79090905     46.581028        
  9364.576              -41.05041      46.471714        
  9365.177              -64.034485     44.18421         
  9365.776              -21.050339     41.26196         
  9366.377              43.288204      38.82215         
  9366.977              44.856342      37.758144        
  9367.577              35.184696      37.690884        
  9368.177              -19.607367     37.71258         
  9368.777              -61.475597     38.721653        
  9369.378              -116.55073     43.3543          
  9369.978              -141.01051     48.424103        
  9370.578              -75.28249      47.96075         
  9371.178              -33.9782       42.934593        
  9371.778              -55.62409      39.29526         
  9372.378              -66.60754      38.16769         
  9372.979              -43.266567     38.334885        
  9373.578              -23.900028     40.58527         
  9374.179              -70.54373      45.14029         
  9374.779              -88.35634      49.91405         
  9375.379              88.30924       60.96309         
  9375.9795             208.93185      88.95746         
  9376.579              33.087147      115.906334       
  9377.18               -402.74255     156.54854        
  9377.779              -1005.3793     247.48155        
  9378.38               -1076.0691     277.02472        
  9378.98               -530.43756     180.74158        
  9379.58               -92.84891      81.68896         
  9380.181              -54.682716     50.001724        
  9380.78               -38.056496     42.45206         
  9381.381              6.387421       39.944702        
  9381.98               26.863531      39.93738         
  9382.581              27.152365      40.15492         
  9383.182              48.723972      38.66414         
  9383.781              -32.68672      39.915905        
  9384.382              13.454065      49.363518        
  9384.981              76.07777       60.61384         
  9385.582              41.77653       58.127632        
  9386.182              36.56381       45.7158          
  9386.782              -56.90351      39.066296        
  9387.382              -101.39096     39.721027        
  9387.982              -97.89854      46.995777        
  9388.583              -95.30547      63.155575        
  9389.183              -59.52231      73.02455         
  9389.783              -43.854305     60.752495        
  9390.383              -6.51033       43.399685        
  9390.983              39.661972      37.74696         
  9391.583              67.638275      37.022194        
  9392.184              65.83145       36.826485        
  9392.784              16.633917      36.61401         
  9393.384              -18.383        36.420956        
  9393.984              -21.232313     36.559013        
  9394.584              14.045584      36.989624        
  9395.185              -30.340818     37.457108        
  9395.784              -14.568746     37.803185        
  9396.385              -15.052283     38.62291         
  9396.985              -34.139645     39.572674        
  9397.585              -67.214554     39.35774         
  9398.186              -11.780205     39.815647        
  9398.785              12.812718      44.655506        
  9399.386              -3.9710302     48.088177        
  9399.985              -11.883262     43.967422        
  9400.586              28.050566      38.053818        
  9401.187              10.045084      36.10975         
  9401.786              19.834606      36.37041         
  9402.387              9.365835       38.91235         
  9402.986              31.646307      49.795628        
  9403.587              186.20291      76.604744        
  9404.187              169.5082       101.459045       
  9404.787              97.94313       95.287285        
  9405.387              -59.441624     65.78057         
  9405.987              -57.75369      44.890785        
  9406.588              64.27417       38.712208        
  9407.1875             80.13628       37.64694         
  9407.788              20.69605       36.856693        
  9408.388              29.062727      35.88148         
  9408.988              38.939182      35.587692        
  9409.588              53.270206      35.69861         
  9410.188              78.99862       35.49107         
  9410.789              -18.193274     35.174877        
  9411.389              -18.468761     35.088135        
  9411.989              -55.55149      34.94873         
  9412.589              -101.841705    35.024616        
  9413.189              -48.706444     35.32463         
  9413.789              5.1490097      35.654137        
  9414.39               62.143597      35.740925        
  9414.99               40.985992      35.65746         
  9415.59               -0.63233423    35.582813        
  9416.19               15.93532       35.581177        
  9416.79               -37.94507      35.605732        
  9417.391              -14.137977     35.98118         
  9417.99               50.250763      37.13456         
  9418.591              41.141556      39.312283        
  9419.191              -78.7924       40.18392         
  9419.791              -101.27447     39.668213        
  9420.392              48.834892      44.283222        
  9420.991              121.40029      70.88814         
  9421.592              -41.45428      120.76463        
  9422.191              -141.74596     134.24483        
  9422.792              -8.475541      91.01456         
  9423.392              -28.79921      51.633884        
  9423.992              -29.442055     45.409992        
  9424.593              -80.65739      52.862633        
  9425.192              -95.510735     54.321835        
  9425.793              -50.30266      45.25485         
  9426.393              -58.757088     38.186623        
  9426.993              -53.397682     36.419205        
  9427.593              -61.62798      35.664177        
  9428.193              -15.545769     34.90938         
  9428.794              18.128174      34.28252         
  9429.394              -30.90332      33.94507         
  9429.994              -42.515797     33.77891         
  9430.594              -9.132812      33.812263        
  9431.194              -30.55645      34.09719         
  9431.794              -27.974928     34.230896        
  9432.395              -12.847767     34.057198        
  9432.995              -72.558334     34.114235        
  9433.595              -72.67759      34.363052        
  9434.195              -55.768826     34.667126        
  9434.795              -59.64028      34.64382         
  9435.3955             -30.923206     34.654472        
  9435.995              14.849679      35.067146        
  9436.596              5.2496343      35.36487         
  9437.196              -15.266815     35.873768        
  9437.796              -23.697        37.99958         
  9438.396              19.029423      40.101837        
  9438.996              -32.60556      39.93307         
  9439.597              -83.44154      41.157654        
  9440.196              -35.806625     51.68999         
  9440.797              -31.086472     94.32002         
  9441.396              -40.73065      180.9862         
  9441.997              -87.31407      222.78688        
  9442.598              -122.87319     161.0143         
  9443.197              45.363914      77.82733         
  9443.798              77.45591       49.118904        
  9444.397              49.542416      44.86227         
  9444.998              -35.671005     41.672604        
  9445.598              -56.706314     37.090267        
  9446.198              -43.08299      34.870686        
  9446.799              -36.066593     34.6684          
  9447.398              -63.544315     34.718258        
  9447.999              10.522082      35.474396        
  9448.599              50.339287      38.743366        
  9449.199              37.419777      41.654858        
  9449.799              -1.2298545     45.291817        
  9450.399              10.004303      49.69598         
  9451.0                -26.041693     46.49192         
  9451.6                -17.729395     40.741383        
  9452.2                43.35442       40.545395        
  9452.8                40.26139       39.409008        
  9453.4                -21.544        36.07121         
  9454.0                -52.355686     34.400135        
  9454.601              -72.17037      34.008476        
  9455.2                -26.622746     33.907177        
  9455.801              1.204436       33.589954        
  9456.401              4.392784       33.519276        
  9457.001              31.845089      34.916023        
  9457.602              -4.3205075     36.488304        
  9458.201              -39.163315     36.680588        
  9458.802              -46.986645     38.910255        
  9459.401              -3.9347334     52.579746        
  9460.002              88.73913       99.19282         
  9460.603              -72.881        152.8628         
  9461.202              -251.4515      140.80174        
  9461.803              -134.20753     81.60438         
  9462.402              -9.235666      46.95587         
  9463.003              16.12213       38.055412        
  9463.603              27.453964      36.46119         
  9464.203              -22.643156     36.427063        
  9464.804              -11.36487      35.482937        
  9465.403              36.871864      34.18299         
  9466.004              8.489911       33.677475        
  9466.604              -22.281092     34.115498        
  9467.204              33.89845       33.688995        
  9467.804              33.51641       33.10287         
  9468.404              11.812629      33.08948         
  9469.005              28.25348       32.801743        
  9469.6045             -15.1744175    32.72946         
  9470.205              1.2509812      32.73668         
  9470.805              73.04312       32.634636        
  9471.405              45.633488      32.63214         
  9472.005              25.921011      32.825832        
  9472.605              26.075594      33.256073        
  9473.205              2.091631       33.771744        
  9473.806              -15.63064      34.31982         
  9474.406              -0.06897626    34.608097        
  9475.006              37.769558      34.823544        
  9475.606              87.25832       35.11415         
  9476.206              15.978572      35.92257         
  9476.807              -68.65785      38.4345          
  9477.406              -60.472454     46.814724        
  9478.007              111.118645     80.33687         
  9478.607              365.1538       161.18185        
  9479.207              300.78134      211.66064        
  9479.808              90.74168       161.2278         
  9480.407              16.90923       81.60604         
  9481.008              -51.956856     50.363113        
  9481.607              -75.75407      41.81067         
  9482.208              -81.62518      36.879364        
